Time[ps]      Etot[eV]     Epot[eV]     Ekin[eV]    T[K]
0.0000         -52.8801     -52.8801       0.0000     0.0
0.0200         -52.8710     -52.8892       0.0182    11.7
0.0400         -52.7884     -52.8926       0.1043    67.2
0.0600         -52.6939     -52.8629       0.1690   108.9
0.0800         -52.6005     -52.7111       0.1106    71.3
0.1000         -52.5006     -52.6204       0.1197    77.2
0.1200         -52.4118     -52.6771       0.2654   171.1
0.1400         -52.3315     -52.6606       0.3291   212.2
0.1600         -52.2649     -52.7381       0.4732   305.0
0.1800         -52.1934     -52.3993       0.2059   132.8
0.2000         -52.1031     -52.4056       0.3025   195.0
0.2200         -52.0413     -52.6094       0.5681   366.2
0.2400         -51.9834     -52.4285       0.4451   287.0
0.2600         -51.9265     -52.5504       0.6239   402.2
0.2800         -51.8796     -52.4189       0.5393   347.7
0.3000         -51.8171     -52.2985       0.4814   310.4
0.3200         -51.7666     -52.3987       0.6321   407.5
0.3400         -51.7189     -52.2165       0.4976   320.8
0.3600         -51.6561     -52.2187       0.5626   362.7
0.3800         -51.6138     -52.3664       0.7526   485.2
0.4000         -51.5743     -52.1902       0.6159   397.1
0.4200         -51.5278     -52.3317       0.8038   518.2
0.4400         -51.5107     -52.3580       0.8473   546.3
0.4600         -51.4664     -52.0704       0.6039   389.4
0.4800         -51.4409     -52.4630       1.0221   659.0
0.5000         -51.4219     -52.0511       0.6293   405.7
0.5200         -51.3655     -52.0396       0.6740   434.6
0.5400         -51.3523     -52.4283       1.0760   693.7
0.5600         -51.3321     -52.0779       0.7458   480.8
0.5800         -51.3128     -52.3706       1.0578   681.9
0.6000         -51.3050     -52.2035       0.8985   579.2
0.6200         -51.2757     -51.9419       0.6662   429.5
0.6400         -51.2309     -51.8849       0.6540   421.6
0.6600         -51.1902     -51.9238       0.7336   472.9
0.6800         -51.1541     -51.7955       0.6414   413.5
0.7000         -51.1101     -51.7298       0.6197   399.5
0.7200         -51.0555     -51.6022       0.5467   352.5
0.7400         -51.0122     -51.8245       0.8123   523.7
0.7600         -50.9967     -51.9163       0.9197   592.9
0.7800         -50.9789     -52.0255       1.0466   674.7
0.8000         -50.9458     -51.3815       0.4357   280.9
0.8200         -50.8857     -51.4390       0.5534   356.8
0.8400         -50.8413     -51.8036       0.9623   620.4
0.8600         -50.8576     -52.1284       1.2708   819.3
0.8800         -50.8573     -51.7926       0.9353   603.0
0.9000         -50.8351     -51.6054       0.7703   496.6
0.9200         -50.7888     -51.3667       0.5780   372.6
0.9400         -50.7677     -51.7976       1.0299   664.0
0.9600         -50.7570     -51.7196       0.9626   620.6
0.9800         -50.7446     -51.8895       1.1450   738.2
1.0000         -50.7708     -52.0462       1.2754   822.2
Time[ps]      Etot[eV]     Epot[eV]     Ekin[eV]    T[K]
0.0000         -56.6367     -56.6367       0.0000     0.0
0.0200         -56.6313     -56.6403       0.0091     5.4
0.0400         -56.6092     -56.6133       0.0041     2.4
0.0600         -56.5897     -56.6351       0.0454    27.0
0.0800         -56.4804     -56.5302       0.0498    29.6
0.1000         -56.4071     -56.5452       0.1381    82.2
0.1200         -56.3096     -56.4677       0.1581    94.1
0.1400         -56.2020     -56.3755       0.1735   103.2
0.1600         -56.1115     -56.4156       0.3041   180.9
0.1800         -56.0189     -56.3039       0.2850   169.6
0.2000         -55.9413     -56.3597       0.4184   249.0
0.2200         -55.8460     -56.0530       0.2070   123.2
0.2400         -55.7779     -56.4208       0.6429   382.6
0.2600         -55.6988     -56.0100       0.3112   185.2
0.2800         -55.6447     -56.3929       0.7482   445.2
0.3000         -55.5682     -55.6737       0.1055    62.8
0.3200         -55.4935     -56.4915       0.9981   593.9
0.3400         -55.4527     -55.6252       0.1725   102.7
0.3600         -55.3877     -56.5444       1.1566   688.3
0.3800         -55.3589     -55.7148       0.3560   211.8
0.4000         -55.2784     -56.1980       0.9196   547.3
0.4200         -55.3014     -56.4949       1.1935   710.3
0.4400         -55.2435     -56.3469       1.1034   656.6
0.4600         -55.2696     -56.4531       1.1835   704.3
0.4800         -55.2184     -55.7011       0.4827   287.3
0.5000         -55.2073     -56.8698       1.6625   989.4
0.5200         -55.2186     -55.8368       0.6182   367.9
0.5400         -55.2023     -56.7816       1.5793   939.8
0.5600         -55.2023     -55.8250       0.6228   370.6
0.5800         -55.1456     -56.1484       1.0029   596.8
0.6000         -55.1643     -56.4393       1.2750   758.8
0.6200         -55.1336     -56.0823       0.9488   564.6
0.6400         -55.1447     -56.3606       1.2159   723.6
0.6600         -55.1153     -55.7875       0.6721   400.0
0.6800         -55.0878     -56.4102       1.3224   786.9
0.7000         -55.1059     -56.1365       1.0306   613.3
0.7200         -55.0884     -56.4411       1.3527   805.0
0.7400         -55.0933     -55.9768       0.8835   525.8
0.7600         -55.0514     -55.9215       0.8701   517.8
0.7800         -55.0460     -56.2611       1.2151   723.1
0.8000         -55.0576     -56.1322       1.0746   639.5
0.8200         -55.0495     -56.4511       1.4016   834.1
0.8400         -55.0561     -55.9034       0.8473   504.2
0.8600         -55.0055     -55.7985       0.7930   471.9
0.8800         -54.9972     -56.2560       1.2588   749.1
0.9000         -54.9888     -56.1742       1.1854   705.5
0.9200         -54.9926     -56.2559       1.2633   751.8
0.9400         -54.9876     -55.9474       0.9598   571.2
0.9600         -54.9689     -55.9896       1.0207   607.4
0.9800         -54.9636     -56.1928       1.2292   731.5
1.0000         -54.9757     -56.2356       1.2599   749.8
Time[ps]      Etot[eV]     Epot[eV]     Ekin[eV]    T[K]
0.0000         -56.1454     -56.1454       0.0000     0.0
0.0200         -56.1372     -56.1506       0.0134     8.0
0.0400         -56.1078     -56.1117       0.0039     2.3
0.0600         -56.0767     -56.1478       0.0711    42.3
0.0800         -55.9667     -56.0080       0.0414    24.6
0.1000         -55.9021     -56.0785       0.1764   105.0
0.1200         -55.8059     -55.9455       0.1396    83.1
0.1400         -55.7026     -55.8749       0.1723   102.5
0.1600         -55.6184     -55.9470       0.3286   195.5
0.1800         -55.5225     -55.7810       0.2585   153.8
0.2000         -55.4502     -55.9088       0.4586   272.9
0.2200         -55.3548     -55.4923       0.1375    81.8
0.2400         -55.2873     -56.0258       0.7385   439.5
0.2600         -55.2113     -55.4034       0.1922   114.4
0.2800         -55.1516     -55.9805       0.8289   493.3
0.3000         -55.0828     -55.1724       0.0896    53.3
0.3200         -54.9984     -55.9069       0.9085   540.6
0.3400         -54.9624     -55.2631       0.3006   178.9
0.3600         -54.8802     -55.9712       1.0911   649.3
0.3800         -54.8640     -55.3086       0.4446   264.6
0.4000         -54.7671     -55.3088       0.5416   322.3
0.4200         -54.7628     -56.0694       1.3066   777.6
0.4400         -54.7047     -55.2722       0.5675   337.7
0.4600         -54.7156     -56.0663       1.3506   803.8
0.4800         -54.6708     -55.0381       0.3673   218.6
0.5000         -54.6313     -55.9354       1.3041   776.1
0.5200         -54.6397     -55.4202       0.7805   464.5
0.5400         -54.6053     -55.9867       1.3815   822.1
0.5600         -54.6094     -55.3383       0.7289   433.8
0.5800         -54.5546     -55.3890       0.8345   496.6
0.6000         -54.5375     -55.5676       1.0301   613.0
0.6200         -54.5285     -55.6265       1.0979   653.4
0.6400         -54.5225     -55.8778       1.3553   806.5
0.6600         -54.5036     -55.1471       0.6435   382.9
0.6800         -54.4672     -55.5887       1.1214   667.4
0.7000         -54.4760     -55.6249       1.1489   683.7
0.7200         -54.4644     -55.9155       1.4511   863.6
0.7400         -54.4736     -55.3279       0.8543   508.4
0.7600         -54.4300     -55.2783       0.8483   504.8
0.7800         -54.4217     -55.7933       1.3715   816.2
0.8000         -54.4262     -55.2407       0.8144   484.7
0.8200         -54.4056     -55.6052       1.1996   713.9
0.8400         -54.3990     -55.3001       0.9011   536.3
0.8600         -54.3719     -55.4407       1.0688   636.1
0.8800         -54.3770     -55.6024       1.2254   729.3
0.9000         -54.3640     -55.1764       0.8124   483.4
0.9200         -54.3624     -55.6799       1.3175   784.0
0.9400         -54.3516     -55.1287       0.7771   462.5
0.9600         -54.3098     -55.3865       1.0766   640.7
0.9800         -54.3266     -55.6464       1.3198   785.4
1.0000         -54.3293     -55.5160       1.1867   706.2
Time[ps]      Etot[eV]     Epot[eV]     Ekin[eV]    T[K]
0.0000        -148.1165    -148.1165       0.0000     0.0
0.0200        -148.0875    -148.1383       0.0507    12.3
0.0400        -147.8993    -148.0189       0.1197    28.9
0.0600        -147.6320    -147.9223       0.2903    70.2
0.0800        -147.3906    -147.9911       0.6005   145.2
0.1000        -147.1468    -147.5318       0.3851    93.1
0.1200        -146.9192    -147.7699       0.8508   205.7
0.1400        -146.7074    -147.3978       0.6904   166.9
0.1600        -146.4985    -147.5352       1.0368   250.7
0.1800        -146.3234    -147.4193       1.0959   265.0
0.2000        -146.1238    -146.8806       0.7569   183.0
0.2200        -145.9226    -146.8286       0.9060   219.0
0.2400        -145.7003    -146.3026       0.6023   145.6
0.2600        -145.4905    -146.5109       1.0204   246.7
0.2800        -145.3245    -146.6469       1.3225   319.7
0.3000        -145.1711    -146.7534       1.5822   382.5
0.3200        -145.0472    -146.2925       1.2453   301.1
0.3400        -144.8490    -146.0472       1.1982   289.7
0.3600        -144.7122    -146.2672       1.5550   375.9
0.3800        -144.5819    -146.7996       2.2177   536.1
0.4000        -144.5599    -147.3308       2.7709   669.9
0.4200        -144.5335    -146.9000       2.3665   572.1
0.4400        -144.4652    -146.3497       1.8845   455.6
0.4600        -144.3414    -146.4703       2.1289   514.7
0.4800        -144.2979    -146.3171       2.0191   488.1
0.5000        -144.2014    -147.0017       2.8003   677.0
0.5200        -144.1828    -146.1323       1.9494   471.3
0.5400        -144.0453    -145.8073       1.7620   426.0
0.5600        -143.9485    -145.1015       1.1531   278.8
0.5800        -143.8094    -146.4206       2.6112   631.3
0.6000        -143.7626    -145.7749       2.0123   486.5
0.6200        -143.7236    -146.8423       3.1187   754.0
0.6400        -143.6534    -144.7340       1.0806   261.2
0.6600        -143.5509    -145.7672       2.2163   535.8
0.6800        -143.4217    -144.9637       1.5420   372.8
0.7000        -143.3882    -146.3964       3.0082   727.3
0.7200        -143.3269    -145.7454       2.4186   584.7
0.7400        -143.2872    -145.2369       1.9497   471.4
0.7600        -143.1802    -145.6644       2.4842   600.6
0.7800        -143.1481    -145.2215       2.0735   501.3
0.8000        -143.1554    -146.5398       3.3844   818.2
0.8200        -143.1506    -145.8941       2.7435   663.3
0.8400        -143.1523    -146.4627       3.3105   800.3
0.8600        -143.1415    -145.1189       1.9774   478.1
0.8800        -143.1239    -145.9816       2.8577   690.9
0.9000        -143.0853    -145.2750       2.1897   529.4
0.9200        -143.0611    -146.5091       3.4481   833.6
0.9400        -143.0403    -144.8227       1.7825   430.9
0.9600        -142.9958    -145.5399       2.5441   615.1
0.9800        -142.9045    -145.0487       2.1442   518.4
1.0000        -142.9010    -146.0040       3.1030   750.2
